"itf-temp-rfile"
"Time Step" "itf-temp etc.."
("Time Step" "itf-temp" "flow-time")
0 293.1500065524132 0
1 293.1500099292982 10
2 293.150034898328 20
3 293.150133254647 30
4 293.1504088987078 40
5 293.1510266053007 50
6 293.1522061540339 60
7 293.1542033005089 70
8 293.1572835015681 80
9 293.1616952864704 90
10 293.1676485576193 100
11 293.1753004998362 110
12 293.1847493360839 120
13 293.1960351234937 130
14 293.2091448598754 140
15 293.2240207843 150
16 293.2405697878589 160
17 293.2586728206064 170
18 293.2781935219836 180
19 293.298985658921 190
20 293.3208992181269 200
21 293.3437851716307 210
22 293.3674990351349 220
23 293.3919033870643 230
24 293.4168695299587 240
25 293.4422784687438 250
26 293.4680213621811 260
27 293.493999580925 270
28 293.5201244820909 280
29 293.5463169882912 290
30 293.5725070397868 300
31 293.5986329721134 310
32 293.6246408581908 320
33 293.6504838432416 330
34 293.6761214924795 340
35 293.7015191650783 350
36 293.7266474230553 360
37 293.7514814800742 370
38 293.776000692524 380
39 293.8001880933422 390
40 293.8240299677377 400
41 293.8475154690995 410
42 293.8706362728209 420
43 293.8933862654624 430
44 293.9157612665275 440
45 293.9377587801148 450
46 293.959377773758 460
47 293.9806046834145 470
48 294.0014598138341 480
49 294.0219432570822 490
50 294.0420569176002 500
51 294.0618038991785 510
52 294.0811881427273 520
53 294.1002142133479 530
54 294.1188871582087 540
55 294.1372124020044 550
56 294.1551956651846 560
57 294.1728428975342 570
58 294.1901602229556 580
59 294.2071538929086 590
60 294.2238302468182 600
61 294.2401956782498 610
62 294.2562566059497 620
63 294.2720194490414 630
64 294.2874906058028 640
65 294.3026764355501 650
66 294.3175832432209 660
67 294.3322172663154 670
68 294.3465846638945 680
69 294.3606915073799 690
70 294.3745437729285 700
71 294.3881473351838 710
72 294.4015079622322 720
73 294.414631311612 730
74 294.4275229272413 740
75 294.4401882371479 750
76 294.452632551896 760
77 294.4648610636198 770
78 294.476878845583 780
79 294.4886908521937 790
80 294.500301919411 800
81 294.5117167654897 810
82 294.5229399920137 820
83 294.5339760851745 830
84 294.5448294172586 840
85 294.5555042483102 850
86 294.5660047279391 860
87 294.576334897249 870
88 294.5864986908627 880
89 294.5964999390272 890
90 294.6063423697759 900
91 294.6160296111386 910
92 294.6255651933823 920
93 294.6349525512727 930
94 294.6441950263452 940
95 294.653295869178 950
96 294.6622582416583 960
97 294.6710852192368 970
98 294.6797797931619 980
99 294.6883448726932 990
100 294.6967832872849 1000
101 294.7050977887403 1010
102 294.7132910533316 1020
103 294.7213656838833 1030
104 294.7293242118175 1040
105 294.7371690991604 1050
106 294.7449027405059 1060
107 294.7525274649379 1070
108 294.7600455379099 1080
109 294.7674591630813 1090
110 294.7747704841099 1100
111 294.7819815864004 1110
112 294.78909449881 1120
113 294.7961111953099 1130
114 294.8030335966035 1140
115 294.809863571702 1150
116 294.8166029394582 1160
117 294.823253470058 1170
118 294.8298168864698 1180
119 294.8362948658553 1190
120 294.842689040939 1200
121 294.849001001339 1210
122 294.8552322948599 1220
123 294.8613844287479 1230
124 294.8674588709085 1240
125 294.8734570510895 1250
126 294.8793803620291 1260
127 294.8852301605668 1270
128 294.8910077687262 1280
129 294.8967144747597 1290
130 294.9023515341656 1300
131 294.9079201706716 1310
132 294.9134215771904 1320
133 294.9188569167443 1330
134 294.9242273233617 1340
135 294.9295339029473 1350
136 294.9347777341235 1360
137 294.9399598690464 1370
138 294.9450813341972 1380
139 294.9501431311476 1390
140 294.9551462373026 1400
141 294.9600916066183 1410
142 294.964980170299 1420
143 294.9698128374717 1430
144 294.9745904958393 1440
145 294.9793140123128 1450
146 294.9839842336244 1460
147 294.9886019869209 1470
148 294.9931635782077 1480
149 294.9976756516677 1490
150 295.0021385121864 1500
151 295.0065526268641 1510
152 295.0109185550071 1520
153 295.01523690109 1530
154 295.0195082912072 1540
155 295.0237333600132 1550
156 295.0279127429773 1560
157 295.032047071655 1570
158 295.0361369707787 1580
159 295.0401830564715 1590
160 295.0441859351717 1600
161 295.0481462030098 1610
162 295.0520644454797 1620
163 295.0559412373011 1630
164 295.0597771424087 1640
165 295.0635727140283 1650
166 295.0673284948054 1660
167 295.0710450169748 1670
168 295.0747228025521 1680
169 295.0783623635417 1690
170 295.0819642021552 1700
171 295.0855288110325 1710
172 295.0890566734671 1720
173 295.0925482636298 1730
174 295.0960040467915 1740
175 295.0994244795419 1750
176 295.1028100100063 1760
177 295.1061610780563 1770
178 295.1094781155178 1780
179 295.1127615463715 1790
180 295.1160117869526 1800
181 295.1192292461406 1810
182 295.122414325548 1820
183 295.1255674197015 1830
184 295.1286889162192 1840
185 295.1317791959831 1850
186 295.1348386333059 1860
187 295.1378675960932 1870
188 295.140866446002 1880
189 295.1438355385935 1890
190 295.1467752234817 1900
191 295.1496858444783 1910
192 295.152567739732 1920
193 295.1554212418663 1930
194 295.1582466781097 1940
195 295.1610443704253 1950
196 295.1638146356347 1960
197 295.1665577855389 1970
198 295.1692741270356 1980
199 295.1719639622332 1990
200 295.1746275885613 2000
201 295.1772652988782 2010
202 295.1798773815744 2020
203 295.1824641206748 2030
204 295.1850257959358 2040
205 295.1875626829417 2050
206 295.1900750531962 2060
207 295.1925631742134 2070
208 295.1950273096051 2080
209 295.1974677191645 2090
210 295.1998846589498 2100
211 295.2022783813637 2110
212 295.204649135232 2120
213 295.2069971658772 2130
214 295.2093227151951 2140
215 295.211626021723 2150
216 295.2139073207109 2160
217 295.2161668441885 2170
218 295.2184048210313 2180
219 295.2206214770238 2190
220 295.2228170349205 2200
221 295.2249917145083 2210
222 295.2271457326642 2220
223 295.2292793034117 2230
224 295.2313926379767 2240
225 295.2334859448422 2250
226 295.2355594297994 2260
227 295.2376132960005 2270
228 295.2396477440071 2280
229 295.2416629718393 2290
230 295.2436591750223 2300
231 295.2456365466334 2310
232 295.2475952773452 2320
233 295.2495355554711 2330
234 295.2514575670052 2340
235 295.2533614956658 2350
236 295.2552475229351 2360
237 295.2571158280978 2370
238 295.2589665882797 2380
239 295.2607999784856 2390
240 295.2626161716345 2400
241 295.2644153385961 2410
242 295.2661976482244 2420
243 295.2679632673923 2430
244 295.2697123610243 2440
245 295.2714450921278 2450
246 295.2731616218252 2460
247 295.2748621093845 2470
248 295.2765467122484 2480
249 295.2782155860645 2490
250 295.2798688847124 2500
251 295.2815067603329 2510
252 295.283129363354 2520
253 295.2847368425174 2530
254 295.2863293449056 2540
255 295.2879070159656 2550
256 295.2894699995347 2560
257 295.2910184378642 2570
258 295.2925524716428 2580
259 295.2940722400207 2590
260 295.2955778806311 2600
261 295.2970695296126 2610
262 295.298547321631 2620
263 295.3000113899002 2630
264 295.3014618662032 2640
265 295.302898880912 2650
266 295.304322563008 2660
267 295.3057330401002 2670
268 295.3071304384457 2680
269 295.3085148829669 2690
270 295.3098864972711 2700
271 295.3112454036676 2710
272 295.3125917231846 2720
273 295.3139255755877 2730
274 295.3152470793957 2740
275 295.3165563518975 2750
276 295.3178535091679 2760
277 295.3191386660841 2770
278 295.3204119363403 2780
279 295.3216734324639 2790
280 295.3229232658296 2800
281 295.3241615466747 2810
282 295.3253883841132 2820
283 295.3266038861501 2830
284 295.3278081596946 2840
285 295.3290013105747 2850
286 295.3301834435501 2860
287 295.331354662325 2870
288 295.3325150695618 2880
289 295.3336647668928 2890
290 295.3348038549335 2900
291 295.3359324332941 2910
292 295.3370506005923 2920
293 295.3381584544646 2930
294 295.3392560915776 2940
295 295.3403436076401 2950
296 295.341421097414 2960
297 295.3424886547256 2970
298 295.3435463724762 2980
299 295.3445943426522 2990
300 295.3456326563368 3000
301 295.3466614037196 3010
302 295.3476806741073 3020
303 295.3486905559328 3030
304 295.349691136766 3040
305 295.3506825033228 3050
306 295.351664741475 3060
307 295.35263793626 3070
308 295.3536021718895 3080
309 295.354557531759 3090
310 295.3555040984564 3100
311 295.3564419537715 3110
312 295.3573711787039 3120
313 295.3582918534724 3130
314 295.3592040575228 3140
315 295.360107869537 3150
316 295.3610033674402 3160
317 295.36189062841 3170
318 295.3627697288841 3180
319 295.3636407445676 3190
320 295.3645037504419 3200
321 295.3653588207711 3210
322 295.3662060291106 3220
323 295.3670454483139 3230
324 295.3678771505403 3240
325 295.3687012072624 3250
326 295.3695176892725 3260
327 295.3703266666901 3270
328 295.3711282089694 3280
329 295.3719223849053 3290
330 295.3727092626406 3300
331 295.3734889096726 3310
332 295.3742613928597 3320
333 295.3750267784287 3330
334 295.3757851319797 3340
335 295.3765365184935 3350
336 295.3772810023387 3360
337 295.3780186472758 3370
338 295.3787495164649 3380
339 295.3794736724716 3390
340 295.3801911772725 3400
341 295.3809020922614 3410
342 295.3816064782548 3420
343 295.3823043954986 3430
344 295.3829959036727 3440
345 295.3836810618974 3450
346 295.3843599287384 3460
347 295.3850325622125 3470
348 295.3856990197936 3480
349 295.3863593584169 3490
350 295.3870136344856 3500
351 295.3876619038747 3510
352 295.3883042219376 3520
353 295.38894064351 3530
354 295.3895712229159 3540
355 295.3901960139725 3550
356 295.3908150699939 3560
357 295.391428443798 3570
358 295.3920361877096 3580
359 295.3926383535666 3590
360 295.3932349927235 3600
361 295.3938261560568 3610
362 295.39441189397 3620
363 295.3949922563967 3630
364 295.3955672928068 3640
365 295.3961370522102 3650
366 295.3967015831612 3660
367 295.3972609337628 3670
368 295.3978151516715 3680
369 295.3983642841015 3690
370 295.398908377828 3700
371 295.3994474791934 3710
372 295.399981634109 3720
373 295.4005108880609 3730
374 295.4010352861138 3740
375 295.4015548729143 3750
376 295.4020696926953 3760
377 295.4025797892801 3770
378 295.4030852060865 3780
379 295.4035859861293 3790
380 295.4040821720264 3800
381 295.4045738060003 3810
382 295.4050609298837 3820
383 295.4055435851214 3830
384 295.406021812776 3840
385 295.4064956535295 3850
386 295.4069651476883 3860
387 295.4074303351862 3870
388 295.4078912555882 3880
389 295.4083479480933 3890
390 295.4088004515394 3900
391 295.4092488044043 3910
392 295.4096930448117 3920
393 295.4101332105332 3930
394 295.4105693389909 3940
395 295.4110014672627 3950
396 295.4114296320839 3960
397 295.4118538698506 3970
398 295.4122742166236 3980
399 295.4126907081312 3990
400 295.4131033797719 4000
401 295.4135122666181 4010
402 295.4139174034183 4020
403 295.4143188246016 4030
404 295.4147165642794 4040
405 295.4151106562487 4050
406 295.4155011339949 4060
407 295.4158880306953 4070
408 295.4162713792215 4080
409 295.4166512121422 4090
410 295.4170275617263 4100
411 295.4174004599455 4110
412 295.4177699384771 4120
413 295.418136028707 4130
414 295.4184987617317 4140
415 295.4188581683621 4150
416 295.4192142791253 4160
417 295.4195671242668 4170
418 295.4199167337549 4180
419 295.4202631372816 4190
420 295.4206063642655 4200
421 295.420946443855 4210
422 295.4212834049303 4220
423 295.4216172761058 4230
424 295.4219480857332 4240
425 295.4222758619026 4250
426 295.4226006324463 4260
427 295.4229224249412 4270
428 295.4232412667098 4280
429 295.4235571848238 4290
430 295.4238702061059 4300
431 295.4241803571327 4310
432 295.4244876642359 4320
433 295.4247921535055 4330
434 295.4250938507915 4340
435 295.4253927817069 4350
436 295.4256889716286 4360
437 295.4259824457007 4370
438 295.4262732288365 4380
439 295.4265613457197 4390
440 295.4268468208081 4400
441 295.4271296783342 4410
442 295.427409942308 4420
443 295.4276876365191 4430
444 295.4279627845385 4440
445 295.4282354097207 4450
446 295.4285055352058 4460
447 295.4287731839213 4470
448 295.429038378584 4480
449 295.4293011417024 4490
450 295.4295614955778 4500
451 295.4298194623073 4510
452 295.4300750637848 4520
453 295.4303283217031 4530
454 295.4305792575562 4540
455 295.4308278926403 4550
456 295.4310742480562 4560
457 295.4313183447114 4570
458 295.4315602033209 4580
459 295.4317998444097 4590
460 295.4320372883149 4600
461 295.4322725551862 4610
462 295.4325056649887 4620
463 295.4327366375041 4630
464 295.4329654923328 4640
465 295.4331922488951 4650
466 295.433416926433 4660
467 295.4336395440119 4670
468 295.4338601205226 4680
469 295.434078674682 4690
470 295.4342952250358 4700
471 295.4345097899591 4710
472 295.4347223876586 4720
473 295.4349330361735 4730
474 295.4351417533781 4740
475 295.4353485569823 4750
476 295.4355534645335 4760
477 295.4357564934185 4770
478 295.4359576608637 4780
479 295.4361569839384 4790
480 295.4363544795551 4800
481 295.4365501644706 4810
482 295.4367440552883 4820
483 295.4369361684593 4830
484 295.4371265202839 4840
485 295.4373151269126 4850
486 295.4375020043477 4860
487 295.4376871684451 4870
488 295.4378706349149 4880
489 295.4380524193232 4890
490 295.4382325370931 4900
491 295.4384110035065 4910
492 295.438587833705 4920
493 295.4387630426913 4930
494 295.4389366453307 4940
495 295.4391086563516 4950
496 295.4392790903481 4960
497 295.4394479617798 4970
498 295.4396143994894 4980
499 295.4397792395918 4990
500 295.4399425679694 5000
501 295.4401044149464 5010
502 295.4402647983833 5020
503 295.4404237319905 5030
504 295.4405812278372 5040
505 295.4407372973687 5050
506 295.4408919518615 5060
507 295.4410452026212 5070
508 295.4411970610547 5080
509 295.4413475386808 5090
510 295.4414966471154 5100
511 295.441644398046 5110
512 295.4417908032038 5120
513 295.4419358743391 5130
514 295.4420796231975 5140
515 295.4422220615025 5150
516 295.4423632009396 5160
517 295.4425030531436 5170
518 295.4426416296887 5180
519 295.4427789420803 5190
520 295.4429150017493 5200
521 295.4430498200467 5210
522 295.4431834082394 5220
523 295.4433157775082 5230
524 295.4434469389445 5240
525 295.4435769035498 5250
526 295.4437056822331 5260
527 295.4438332858113 5270
528 295.4439597250075 5280
529 295.4440850104521 5290
530 295.4442091526817 5300
531 295.4443321621389 5310
532 295.4444540491741 5320
533 295.4445748240443 5330
534 295.4446944969141 5340
535 295.4448130778559 5350
536 295.444930576851 5360
537 295.4450470037901 5370
538 295.4451623684728 5380
539 295.4452766806104 5390
540 295.4453899498247 5400
541 295.4455021856494 5410
542 295.445613397531 5420
543 295.4457235948293 5430
544 295.445832786818 5440
545 295.4459409826858 5450
546 295.4460481915372 5460
547 295.4461544223927 5470
548 295.4462596841903 5480
549 295.4463639857852 5490
550 295.446467335952 5500
551 295.4465697433841 5510
552 295.4466712166953 5520
553 295.4467717644197 5530
554 295.4468713950134 5540
555 295.4469701168551 5550
556 295.4470679382462 5560
557 295.4471648674113 5570
558 295.4472609125003 5580
559 295.4473560815879 5590
560 295.4474503826745 5600
561 295.4475438236873 5610
562 295.4476364124804 5620
563 295.4477281568362 5630
564 295.4478190644656 5640
565 295.4479091430082 5650
566 295.4479984000345 5660
567 295.4480868430448 5670
568 295.4481744794709 5680
569 295.4482613166763 5690
570 295.4483473619572 5700
571 295.4484326225427 5710
572 295.4485171055958 5720
573 295.4486008182141 5730
574 295.4486837674295 5740
575 295.4487659602101 5750
576 295.4488474034598 5760
577 295.4489281040194 5770
578 295.4490080686674 5780
579 295.4490873041196 5790
580 295.4491658170306 5800
581 295.4492436139944 5810
582 295.4493207015442 5820
583 295.4493970861535 5830
584 295.4494727742368 5840
585 295.4495477721495 5850
586 295.4496220861895 5860
587 295.4496957225961 5870
588 295.4497686875525 5880
589 295.4498409871849 5890
590 295.4499126275635 5900
591 295.4499836147032 5910
592 295.4500539545635 5920
593 295.4501236530496 5930
594 295.450192716013 5940
595 295.4502611492514 5950
596 295.4503289585096 5960
597 295.4503961494799 5970
598 295.4504627278023 5980
599 295.4505286990657 5990
600 295.4505940688077 6000
